Delay (fs)      Parallel component      Perpendicular component
0.000000000000000000e+00	0.000000000000000000e+00	0.000000000000000000e+00
3.225371829602437401e+00	1.490121785276326216e+00	3.687114281645789606e-04
6.450743659204874803e+00	2.640479405566870330e+00	1.509786005908724405e-03
9.676115488807312204e+00	3.375219108350305586e+00	3.166782679196359675e-03
1.290148731840974961e+01	3.928906002464972236e+00	4.852210259408822578e-03
1.612685914801218701e+01	4.264506036690275614e+00	5.959250468928468242e-03
1.935223097761462441e+01	4.231607244028330328e+00	6.092522734572780596e-03
2.257760280721059942e+01	3.743503795613059904e+00	5.294898141380673801e-03
2.580297463681303682e+01	3.171196184187494715e+00	4.023343491829337211e-03
2.902834646641547423e+01	2.689970707210811440e+00	2.888562292299134884e-03
3.225371829601790807e+01	2.145641117945626508e+00	2.323672026154663221e-03
3.547909012562034547e+01	1.585823774212748560e+00	2.383631793894949551e-03
3.870446195522278288e+01	1.093180480959272227e+00	2.780641958126145626e-03
4.192983378482522028e+01	6.517935730307536923e-01	3.105266709573081471e-03
4.515520561442765768e+01	2.441953331138075334e-01	3.076707306221355270e-03
4.838057744403009508e+01	-1.756835716638378009e-01	2.671999937158745994e-03
5.160594927363253248e+01	-6.124570628000973738e-01	2.082764333621288551e-03
5.483132110323496988e+01	-1.066266879225160169e+00	1.560701894270647393e-03
5.805669293283740728e+01	-1.220826457525441056e+00	1.265076324656397647e-03
6.128206476243984469e+01	-1.285281854468378393e+00	1.197125417738192400e-03
6.450743659204228209e+01	-1.238191425756182795e+00	1.234935703969618215e-03
6.773280842163825355e+01	-1.083100408220937894e+00	1.223584538787626927e-03
7.095818025124069095e+01	-8.544252642127796449e-01	1.060876312665307800e-03
7.418355208084312835e+01	-4.976991398587500282e-01	7.414352288952960873e-04
7.740892391044556575e+01	-1.824065067643841631e-01	3.529307129478199186e-04
8.063429574004800315e+01	1.218244120987091172e-01	3.660593897453694412e-05
8.385966756965044056e+01	4.382333885827082165e-01	-7.101927566187068216e-05
8.708503939925287796e+01	6.860862696192726595e-01	1.028601137862088770e-04
9.031041122885531536e+01	8.791613231232796588e-01	5.286970392298368914e-04
9.353578305845775276e+01	9.099313703776870099e-01	1.075894759596502217e-03
9.676115488806019016e+01	9.091767451358168106e-01	1.559756586302158549e-03
9.998652671766262756e+01	8.822126366403404418e-01	1.816175663245616582e-03
1.032118985472650650e+02	7.639021334606456159e-01	1.767894024174608602e-03
1.064372703768675024e+02	6.103977616035450859e-01	1.448607978124542492e-03
1.096626422064699398e+02	4.135855725612043177e-01	9.754220060483192751e-04
1.128880140360659112e+02	2.218562882227341215e-01	4.901145984992625639e-04
1.161133858656683486e+02	3.980598226434738096e-02	1.044672357688323692e-04
1.193387576952707860e+02	-1.250105182283371974e-01	-1.245415249339537395e-04
1.225641295248732234e+02	-1.649026282691982703e-01	-1.880940011694732963e-04
1.257895013544756608e+02	-1.725790132236520724e-01	-1.055204867462512347e-04
1.290148731840781124e+02	-1.802553981781059300e-01	8.917490520030354529e-05
1.322402450136805498e+02	-1.823759754986319648e-01	3.480293348121555100e-04
1.354656168432829872e+02	-1.811594539765683798e-01	6.061857795583965383e-04
1.386909886728854246e+02	-1.746442028807714264e-01	7.885807207939452435e-04
1.419163605024878620e+02	-1.680906245749247407e-01	8.307175626734266457e-04
1.451417323320902995e+02	-1.598894481634227649e-01	7.049761259754060583e-04
1.483671041616927369e+02	-1.164114359003819016e-01	4.373896197654970029e-04
1.515924759912951743e+02	-6.048026138541278546e-02	1.039267583167187523e-04
1.548178478208911315e+02	8.220158584981096528e-03	-1.939967435377248158e-04
1.580432196504935689e+02	1.288379057929333049e-01	-3.651121516502293853e-04
1.612685914800960063e+02	2.394205614426881679e-01	-3.609489822144470788e-04
1.644939633096984437e+02	3.297309726715563771e-01	-1.931021867241324214e-04
1.677193351393008811e+02	3.697880705261443746e-01	7.163882190532066575e-05
1.709447069689033185e+02	3.850382043327013060e-01	3.371562426325970334e-04
1.741700787985057559e+02	3.629766610182206255e-01	5.153639314457883567e-04
1.773954506281081933e+02	3.203142423020094998e-01	5.596337325818609779e-04
1.806208224577106307e+02	2.527341460641154280e-01	4.791358465755183997e-04
1.838461942873130681e+02	1.105597558152399684e-01	3.272404021763741441e-04
1.870715661169155055e+02	-2.854871658060052775e-02	1.703801631472844514e-04
1.902969379465179429e+02	-1.614420384935219832e-01	5.451569636770453716e-05
1.935223097761203803e+02	-2.498817340612208282e-01	-1.257678127744079104e-05
1.967476816057228177e+02	-2.963770710915720197e-01	-5.486328451052699455e-05
1.999730534353188034e+02	-3.074078427487902943e-01	-1.038382142550026599e-04
2.031984252649212408e+02	-2.798016372057820500e-01	-1.729618889652628517e-04
2.064237970945236782e+02	-2.306553404530221341e-01	-2.464316762817637431e-04
2.096491689241261156e+02	-1.546655801475887160e-01	-2.878358221532334709e-04
2.128745407537285530e+02	-6.114112124441110907e-02	-2.620216824666780366e-04
2.160999125833309904e+02	4.294873760991255868e-02	-1.568201569804047557e-04
2.193252844129334278e+02	1.633196142906755410e-01	6.998793781031925528e-06
2.225506562425358652e+02	2.247703317688600211e-01	1.816987929504219521e-04
2.257760280721383026e+02	2.581721083472655054e-01	3.106480207505595394e-04
2.290013999017407400e+02	2.522374241807970319e-01	3.500339213639326054e-04
2.322267717313431774e+02	2.294683457253741399e-01	2.854158176211640417e-04
2.354521435609456148e+02	1.956864308502678229e-01	1.370828235116168764e-04
2.386775153905480522e+02	1.406615874372502129e-01	-4.744672897713541650e-05
2.419028872201504896e+02	8.651207214550188374e-02	-2.107241799191292341e-04
2.451282590497464469e+02	3.341467608633168912e-02	-3.056596997764102208e-04
2.483536308793488843e+02	-8.966709754644336394e-03	-3.108019626769015003e-04
2.515790027089513217e+02	-5.137967564979939450e-02	-2.349343051611472034e-04
2.548043745385537591e+02	-9.382556892736747256e-02	-1.103212003023915381e-04
2.580297463681562249e+02	-1.353625382944890487e-01	2.102670824721401447e-05
2.612551181977586339e+02	-1.656200633352138407e-01	1.214790904717674952e-04
2.644804900273610997e+02	-1.782635209072555016e-01	1.672392602764432635e-04
2.677058618569635087e+02	-1.735353453575912142e-01	1.516857467311663306e-04
2.709312336865659745e+02	-1.572211853206105237e-01	8.409348310016033544e-05
2.741566055161683835e+02	-1.205809613363271748e-01	-1.418636071072297843e-05
2.773819773457708493e+02	-5.769134700164839369e-02	-1.151237388845566907e-04
2.806073491753732583e+02	1.239104639806204618e-02	-1.908755305504973251e-04
2.838327210049757241e+02	7.341508141414070099e-02	-2.213672510149563080e-04
2.870580928345781331e+02	1.309815204681269996e-01	-2.003450005143492989e-04
2.902834646641741188e+02	1.822442521552143091e-01	-1.371061433164477510e-04
2.935088364937765277e+02	1.884369660680509373e-01	-5.261874987647310767e-05
2.967342083233789936e+02	1.837041675435999999e-01	2.845465217174130619e-05
2.999595801529814025e+02	1.695770389299414427e-01	8.618952545090525054e-05
3.031849519825838684e+02	1.200332442699500457e-01	1.107128011664431575e-04
3.064103238121862773e+02	6.499102166348583176e-02	1.028777073448651464e-04
3.096356956417887432e+02	3.450927154670782593e-03	7.123920184863901316e-05
3.128610674713911521e+02	-4.836153795141327066e-02	2.757073152269820580e-05
3.160864393009936180e+02	-9.224290214545924349e-02	-1.707049071276600880e-05
3.193118111305960269e+02	-1.229484419632741743e-01	-5.473305192501271005e-05
3.225371829601984928e+02	-1.308700787985072056e-01	-8.127890093590675981e-05
3.257625547898009017e+02	-1.282804683804233681e-01	-9.569387956131075463e-05
3.289879266194033676e+02	-1.117020571762666892e-01	-9.855699776915640971e-05
3.322132984489993532e+02	-7.989615264302776798e-02	-9.054507778494941522e-05
3.354386702786017622e+02	-4.112718325120681695e-02	-7.194332777908876860e-05
3.386640421082042280e+02	-2.358213859385178968e-03	-4.358414927747231567e-05
3.418894139378066370e+02	3.644854381119190523e-02	-8.548720380544757186e-06
3.451147857674091028e+02	7.448770312913459424e-02	2.687768353859272525e-05
3.483401575970115118e+02	9.100160689669893610e-02	5.427019250125168131e-05
3.515655294266139776e+02	9.975048470825824409e-02	6.607283605712727028e-05
3.547909012562163866e+02	1.002665442009946228e-01	5.896990847224133363e-05
3.580162730858188525e+02	8.895881319732111547e-02	3.558306840228324890e-05
3.612416449154212614e+02	7.328031065991125192e-02	3.459635782875694716e-06
3.644670167450237273e+02	5.192834914794292045e-02	-2.798371579598773874e-05
3.676923885746261362e+02	2.804554237582640788e-02	-5.078797686407499599e-05
3.709177604042286021e+02	6.029553186941562053e-03	-6.048102296422370886e-05
3.741431322338310110e+02	-1.003279852447843366e-02	-5.638739797253268266e-05
3.773685040634269967e+02	-1.884752780177983283e-02	-4.085257077250142768e-05
3.805938758930294057e+02	-2.504024171461646103e-02	-1.823653426832620765e-05
3.838192477226318715e+02	-3.123295562745319331e-02	5.969205483347474137e-06
3.870446195522342805e+02	-3.660782171939610391e-02	2.607216402522229221e-05
3.902699913818367463e+02	-4.079760965234284498e-02	3.734335521546278201e-05
3.934953632114391553e+02	-3.718519320318814519e-02	3.720631492856885526e-05
3.967207350410416211e+02	-3.360719145485421139e-02	2.595053553056986842e-05
3.999461068706440301e+02	-3.005928244229156415e-02	6.625965803699371707e-06
4.031714787002464959e+02	-1.928040199316684300e-02	-1.578570356497377631e-05
4.063968505298489049e+02	-6.450991477919212555e-03	-3.554528536003364356e-05
4.096222223594513707e+02	8.901778430988525198e-03	-4.738562905340474473e-05
4.128475941890537797e+02	2.425454833989599407e-02	-4.773440383014499724e-05
4.160729660186562455e+02	3.924250980246060672e-02	-3.585964427449814175e-05
4.192983378482586545e+02	5.349865328930324820e-02	-1.456174708328902592e-05
4.225237096778546402e+02	5.937608064564010163e-02	1.019190625898890697e-05
4.257490815074571060e+02	6.187527554776287020e-02	3.101033420326226246e-05
4.289744533370595150e+02	6.090766399888214444e-02	4.173832015128781732e-05
4.321998251666619808e+02	5.558439862001068876e-02	3.983654749682808229e-05
4.354251969962643898e+02	4.807747992986201313e-02	2.724269562644930363e-05
4.386505688258668556e+02	3.956249829971150017e-02	9.262095285054899974e-06
4.418759406554692646e+02	2.433164912298117419e-02	-7.860425225741580389e-06
4.451013124850717304e+02	4.269836342853836411e-03	-1.938436251830202151e-05
4.483266843146741394e+02	-1.579197643727314748e-02	-2.342283769357956605e-05
4.515520561442766052e+02	-3.389819847561196392e-02	-2.087068809723391773e-05
4.547774279738790142e+02	-4.989604275043990622e-02	-1.434104226229757770e-05
4.580027998034814800e+02	-5.676537562268443859e-02	-6.823383596272260920e-06
4.612281716330838890e+02	-5.922444777094604262e-02	-6.051279950760934686e-07
4.644535434626798747e+02	-5.561203132179853847e-02	3.303892697845181243e-06
4.676789152922823405e+02	-4.717756734653556772e-02	5.191448391875788719e-06
4.709042871218847495e+02	-3.573387845107468819e-02	6.148395256108370264e-06
4.741296589514872153e+02	-1.909095981032597061e-02	7.248183972502067979e-06
4.773550307810896243e+02	8.961025395697267554e-04	8.794558192313840534e-06
4.805804026106920332e+02	2.211904917835358017e-02	1.009429811119101831e-05
4.838057744402944991e+02	4.334199581713780308e-02	9.950237916130206690e-06
4.870311462698969081e+02	5.627786567474227231e-02	7.582181045622656218e-06
4.902565180994993739e+02	6.393599665153942846e-02	3.336085121566867317e-06
4.934818899291017829e+02	6.690333873477363746e-02	-1.344161759794516973e-06
4.967072617587042487e+02	6.590983353781405818e-02	-4.678044277856115188e-06
4.999326335883066577e+02	6.139431297637067825e-02	-5.503715382822543136e-06
5.031580054179091235e+02	5.687879241492722893e-02	-3.780050122277580045e-06
5.063833772475115325e+02	4.547405316087642368e-02	-3.788076341839170402e-07
5.096087490771075181e+02	2.489618088805403695e-02	3.546779819075846961e-06
5.128341209067099271e+02	-8.397914350214003010e-04	7.085756788805824309e-06
5.160594927363124498e+02	-2.817781433626454640e-02	9.668653785488362593e-06
5.192848645659148588e+02	-5.733517567587032016e-02	1.085639191571407878e-05
5.225102363955172677e+02	-8.076919803369672635e-02	1.018416663715436481e-05
5.257356082251196767e+02	-9.867398800867473174e-02	7.306689456802822633e-06
5.289609800547221994e+02	-1.033830308798944081e-01	2.358629001074817805e-06
5.321863518843246084e+02	-9.519259763359873283e-02	-3.783188942829071995e-06
5.354117237139270173e+02	-7.971088583688984430e-02	-9.591874331857755295e-06
5.386370955435294263e+02	-5.629468635397635867e-02	-1.334233335336154702e-05
5.418624673731319490e+02	-2.647159910748814529e-02	-1.371405907277122889e-05
5.450878392027343580e+02	8.039879469257630792e-03	-1.029517447742716441e-05
5.483132110323367669e+02	4.255135804600340688e-02	-3.823084282591392714e-06
5.515385828619391759e+02	7.149316666252936159e-02	3.915322652799525438e-06
5.547639546915352184e+02	9.432879921606934781e-02	1.054993685333724125e-05
5.579893265211376274e+02	9.922847264282863566e-02	1.390172805099687829e-05
5.612146983507400364e+02	9.552085998241822973e-02	1.283871837353681057e-05
5.644400701803425591e+02	7.991006032714201290e-02	7.826166200165122217e-06
5.676654420099449680e+02	5.417058103407548092e-02	8.126664858660745043e-07
5.708908138395473770e+02	2.498496394378054569e-02	-5.600598989796054946e-06
5.741161856691497860e+02	-7.655798971795836627e-03	-9.328732359368166580e-06
5.773415574987523087e+02	-3.551978458991865428e-02	-9.683008674548286329e-06
5.805669293283547177e+02	-5.872346515819834578e-02	-7.485296068842098837e-06
5.837923011579571266e+02	-6.852859552018966682e-02	-4.411294341189351807e-06
5.870176729875595356e+02	-7.179646540248808828e-02	-2.017443988568438575e-06
5.902430448171620583e+02	-7.061669243881106561e-02	-1.036320999269924600e-06
5.934684166467644673e+02	-6.287580004776527343e-02	-1.266848662957603366e-06
5.966937884763603961e+02	-5.225546724692237827e-02	-1.969444234732571577e-06
5.999191603059628051e+02	-3.903144274555249427e-02	-2.411574395915371455e-06
6.031445321355653277e+02	-1.901522883136104805e-02	-2.235657873570201414e-06
6.063699039651677367e+02	1.148200742646677056e-03	-1.535206762505978626e-06
6.095952757947701457e+02	2.127452095936571350e-02	-7.177201356270946062e-07
6.128206476243725547e+02	3.446204802012825530e-02	-2.850070465493148031e-07
6.160460194539750773e+02	4.544057096941470086e-02	-6.139637991424823137e-07
6.192713912835774863e+02	5.389104516297301556e-02	-1.781336693074042124e-06
6.224967631131798953e+02	5.125589113401259056e-02	-3.487051368854468010e-06
6.257221349427823043e+02	4.537127170528056086e-02	-5.137526796980412417e-06
6.289475067723848269e+02	3.943658753881191387e-02	-6.088674051334809079e-06
6.321728786019872359e+02	2.946034917264722663e-02	-5.939621693397291994e-06
6.353982504315896449e+02	1.726362811826914756e-02	-4.711600292847537485e-06
6.386236222611920539e+02	3.201006941202642897e-03	-2.812957949664298965e-06
6.418489940907880964e+02	-1.089859411765186324e-02	-8.380015557066600953e-07
6.450743659203905054e+02	-2.492161044276370446e-02	6.518437710646864371e-07
6.482997377499929144e+02	-3.453321849497888868e-02	1.248176255003895628e-06
6.515251095795954370e+02	-4.127762053755498067e-02	7.245767454442434147e-07
6.547504814091978460e+02	-4.482552955011763485e-02	-9.329225521588485999e-07
6.579758532388002550e+02	-4.176704437254371433e-02	-3.443265241084481521e-06
6.612012250684026640e+02	-3.462302622228518451e-02	-6.168566280595783684e-06
6.644265968980051866e+02	-2.152801659409894069e-02	-8.212321129664040809e-06
6.676519687276075956e+02	-8.379967591361009091e-03	-8.733470503582162935e-06
6.708773405572100046e+02	4.779549473416818892e-03	-7.351339775501057470e-06
6.741027123868124136e+02	1.793906653819464861e-02	-4.396114313646735778e-06
6.773280842164149362e+02	2.825832085894671927e-02	-8.193212788156554960e-07
6.805534560460173452e+02	3.685194439914983577e-02	2.212266111557995207e-06
6.837788278756197542e+02	4.239958394606597319e-02	3.815624665886887911e-06
6.870041997052156830e+02	4.125319647755059521e-02	3.716450317989198105e-06
6.902295715348182057e+02	3.600972839080904958e-02	2.263952812202268691e-06
6.934549433644206147e+02	3.052659628048495777e-02	1.892246666513700915e-07
6.966803151940230237e+02	2.285905441793092963e-02	-1.727032443679403216e-06
6.999056870236254326e+02	1.318293892912370327e-02	-2.925155773161600270e-06
7.031310588532279553e+02	3.506823440316133439e-03	-3.205462302870033171e-06
7.063564306828303643e+02	-6.169292048491092917e-03	-2.732457801538224443e-06
7.095818025124327733e+02	-1.584540753729831927e-02	-1.924114164949997484e-06
7.128071743420351822e+02	-2.080547013148643931e-02	-1.256908039604248559e-06
7.160325461716377049e+02	-2.380325461716377086e-02	-1.049191503366099326e-06
7.192579180012401139e+02	-2.412579180012400931e-02	-1.320157972764830186e-06
7.224832898308425229e+02	-2.444832898308425123e-02	-1.806996665868491779e-06
7.257086616604449318e+02	-2.363700750933260195e-02	-2.138492079717837663e-06
7.289340334900474545e+02	-1.879894976492881703e-02	-2.059927668653484603e-06
7.321594053196433833e+02	-1.361538716939198271e-02	-1.566671975989615330e-06
7.353847771492457923e+02	-8.268965475236899829e-03	-8.711476096965709090e-07
7.386101489788483150e+02	-2.979355674688762695e-03	-2.494247479120629295e-07
7.418355208084507240e+02	2.346964542028201831e-03	1.097160259926380028e-07
7.450608926380531329e+02	7.699863926407138001e-03	1.575003188550063492e-07
7.482862644676555419e+02	1.298947372695509125e-02	-5.905409692143641209e-08
7.515116362972580646e+02	1.640465451890322710e-02	-4.617245436233288428e-07
7.547370081268604736e+02	1.769480325074418783e-02	-9.587502166049370293e-07
7.579623799564628825e+02	1.750376200435371093e-02	-1.420413094932823884e-06
7.611877517860652915e+02	1.718122482139346902e-02	-1.673425079422128147e-06
7.644131236156678142e+02	1.685868763843321669e-02	-1.558563380228060160e-06
7.676384954452702232e+02	1.373934528348653983e-02	-1.026347346269254446e-06
7.708638672748726322e+02	9.652367051198693093e-03	-1.947394858888545307e-07
7.740892391044685610e+02	4.620786997029044385e-03	6.872505163845390172e-07
7.773146109340710836e+02	-4.107930571508903658e-04	1.353451931463811581e-06
7.805399827636734926e+02	-5.453172766604118780e-03	1.636991404719825864e-06
7.837653545932759016e+02	-1.054926025737592567e-02	1.520610427532931871e-06
7.869907264228783106e+02	-1.560553321969016492e-02	1.110192908877667248e-06
7.902160982524808333e+02	-2.035186358059539943e-02	5.731726876066786626e-07
7.934414700820832422e+02	-2.112595281969997796e-02	8.665212404118864510e-08
7.966668419116856512e+02	-2.166668419116856217e-02	-1.955980057644811630e-07
7.998922137412880602e+02	-2.198922137412880409e-02	-1.758086465726985062e-07
8.031175855708905829e+02	-1.476720147553384557e-02	1.479454435689916935e-07
8.063429574004929918e+02	-6.908310758718221034e-03	6.602009493399943635e-07
8.095683292300954008e+02	1.477655998248042848e-03	1.161163930483584680e-06
8.127937010596978098e+02	9.863622755214304996e-03	1.457494781449467276e-06
8.160190728893003325e+02	1.824958951218086378e-02	1.462955563572244518e-06
8.192444447188962613e+02	2.663555626913027830e-02	1.241911888205589138e-06
8.224698165484986703e+02	3.467574870930673070e-02	9.644905732150047454e-07
8.256951883781011929e+02	4.006577394627856836e-02	8.050444435810589748e-07
8.289205602077036019e+02	3.619532775075567921e-02	8.522357119665515388e-07
8.321459320373060109e+02	3.189569514777158832e-02	1.081014527799036223e-06
8.353713038669084199e+02	2.711283580215415046e-02	1.385280979291003071e-06
8.385966756965109425e+02	2.027504752339680250e-02	1.632769231834145915e-06
8.418220475261133515e+02	1.343725924463969566e-02	1.708165932704894985e-06
8.450474193557157605e+02	6.599470965882587963e-03	1.540619748178492473e-06
8.482727911853181695e+02	-2.383173128745188704e-04	1.129354520700905069e-06
8.514981630149206921e+02	-7.076105591631867697e-03	5.674550883898691449e-07
8.547235348445231011e+02	-1.391389387038897626e-02	3.890824919674809502e-08
8.579489066741255101e+02	-1.727197227367797960e-02	-2.367655959182071974e-07
8.611742785037279191e+02	-1.976365368178940179e-02	-1.029896554167089264e-07
8.643996503333239616e+02	-2.131183215999550226e-02	4.443018971273285608e-07
8.676250221629263706e+02	-2.249250753539496633e-02	1.236643923086301783e-06
8.708503939925287796e+02	-2.163322777464359373e-02	2.003263856983773411e-06
8.740757658221311885e+02	-1.531149898862287084e-02	2.492730441018010957e-06
8.773011376517337112e+02	-8.943747449567251637e-03	2.575379063203531759e-06
8.805265094813361202e+02	-2.557511226954481843e-03	2.275105881848864745e-06
8.837518813109385292e+02	3.828724995658287951e-03	1.729797364682725613e-06
8.869772531405409381e+02	1.021496121827105731e-02	1.119557139405386685e-06
8.902026249701434608e+02	1.654446244924388104e-02	6.047422332074523460e-07
8.934279967997458698e+02	2.202759455956797979e-02	2.909745265858844023e-07
8.966533686293482788e+02	2.552668431467413832e-02	2.154761577814760684e-07
8.998787404589506878e+02	2.713937022947534444e-02	3.468375693885219660e-07
9.031041122885532104e+02	2.359922974527827594e-02	6.005500826699481040e-07
9.063294841181491392e+02	1.794334129281223780e-02	8.744611700115875354e-07
9.095548559477515482e+02	9.557374535845973920e-03	1.094012903807689679e-06
9.127802277773540709e+02	1.115803223332333810e-03	1.241565823486112958e-06
9.160055996069564799e+02	-7.334670970225977416e-03	1.348165638122946555e-06
9.192309714365588889e+02	-1.578514516378428864e-02	1.452349726869569123e-06
9.224563432661612978e+02	-2.418649249201937357e-02	1.557618769089969856e-06
9.256817150957638205e+02	-3.040460524445698365e-02	1.622481622278782433e-06
9.289070869253662295e+02	-2.853388958328758815e-02	1.590432674150908866e-06
9.321324587549686385e+02	-2.397627589085770533e-02	1.434511708489946410e-06
9.353578305845710474e+02	-1.804159172438927344e-02	1.180840913950472036e-06
9.385832024141735701e+02	-1.210690755792063165e-02	8.955603036254608222e-07
9.418085742437759791e+02	-6.172223391452198032e-03	6.502544090907160063e-07
9.450339460733783881e+02	-2.368603035161981828e-04	4.945627934003739682e-07
9.482593179029807970e+02	5.762331299544282484e-03	4.514639830720816466e-07
9.514846897325768396e+02	9.772038660939955795e-03	5.265787909686911239e-07
9.547100615621792485e+02	1.144923201233320753e-02	7.120948340681442554e-07
9.579354333917816575e+02	9.721322629259739057e-03	9.774284430797037901e-07
9.611608052213840665e+02	7.633868553886515897e-03	1.258587891177441036e-06
9.643861770509865892e+02	5.505123146348852095e-03	1.465015987125028442e-06
9.676115488805889981e+02	2.436220141799221896e-03	1.509251544005318819e-06
9.708369207101914071e+02	0.000000000000000000e+00	1.344321905395291786e-06
9.740622925397938161e+02	0.000000000000000000e+00	9.859495432193311292e-07
9.772876643693963388e+02	0.000000000000000000e+00	5.079062761113633827e-07
9.805130361989987478e+02	0.000000000000000000e+00	1.733115983443178289e-08
9.837384080286011567e+02	0.000000000000000000e+00	-3.744708250392097034e-07
9.869637798582035657e+02	0.000000000000000000e+00	-5.763367106204385723e-07
9.901891516878060884e+02	0.000000000000000000e+00	-5.375852018904204568e-07
9.934145235174084974e+02	0.000000000000000000e+00	-2.664940191455865606e-07
9.966398953470044262e+02	0.000000000000000000e+00	1.600842567148695179e-07
9.998652671766069489e+02	0.000000000000000000e+00	6.098506456778804498e-07
1.003090639006209358e+03	0.000000000000000000e+00	9.370845791275161098e-07
1.006316010835811767e+03	0.000000000000000000e+00	1.039581247573440477e-06
1.009541382665414176e+03	0.000000000000000000e+00	9.006902398806798163e-07
1.012766754495016698e+03	0.000000000000000000e+00	5.910534719966956552e-07
1.015992126324619107e+03	0.000000000000000000e+00	2.287200637540034936e-07
1.019217498154221516e+03	0.000000000000000000e+00	-7.769219997927690487e-08
1.022442869983823925e+03	0.000000000000000000e+00	-2.699407891757473694e-07
1.025668241813426448e+03	0.000000000000000000e+00	-3.468302551687253248e-07
1.028893613643028857e+03	0.000000000000000000e+00	-3.422155126301155141e-07
1.032118985472631266e+03	0.000000000000000000e+00	-2.949253965242087157e-07
1.035344357302233675e+03	0.000000000000000000e+00	-2.290140711816209713e-07
1.038569729131829718e+03	0.000000000000000000e+00	-1.501074826508254778e-07
1.041795100961432126e+03	0.000000000000000000e+00	-5.304297570774599828e-08
1.045020472791034535e+03	0.000000000000000000e+00	6.632859200855832845e-08
1.048245844620636944e+03	0.000000000000000000e+00	1.999615566617553210e-07
1.051471216450239353e+03	0.000000000000000000e+00	3.210453117653241956e-07
1.054696588279841990e+03	0.000000000000000000e+00	3.873504752554010405e-07
1.057921960109444399e+03	0.000000000000000000e+00	3.579442929612881555e-07
1.061147331939046808e+03	0.000000000000000000e+00	2.183671049991119881e-07
1.064372703768649217e+03	0.000000000000000000e+00	-5.629521482426238394e-10
1.067598075598251626e+03	0.000000000000000000e+00	-2.264820115704281076e-07
1.070823447427854035e+03	0.000000000000000000e+00	-3.756063806835039299e-07
1.074048819257456444e+03	0.000000000000000000e+00	-3.942505900932817228e-07
1.077274191087058853e+03	0.000000000000000000e+00	-2.861932819405527837e-07
1.080499562916661489e+03	0.000000000000000000e+00	-1.080060251550344843e-07
1.083724934746257304e+03	0.000000000000000000e+00	6.424322418882862501e-08
1.086950306575859713e+03	0.000000000000000000e+00	1.745698973775075277e-07
1.090175678405462122e+03	0.000000000000000000e+00	2.082633883257330527e-07
1.093401050235064758e+03	0.000000000000000000e+00	1.850739382386179628e-07
1.096626422064667167e+03	0.000000000000000000e+00	1.346129827444207588e-07
1.099851793894269576e+03	0.000000000000000000e+00	7.390455432763014284e-08
1.103077165723871985e+03	0.000000000000000000e+00	1.374843300313373030e-09
1.106302537553474394e+03	0.000000000000000000e+00	-9.250680423034857134e-08
1.109527909383076803e+03	0.000000000000000000e+00	-2.086724713133144087e-07
1.112753281212679212e+03	0.000000000000000000e+00	-3.291535625834317511e-07
1.115978653042281621e+03	0.000000000000000000e+00	-4.191779613833253830e-07
1.119204024871884258e+03	0.000000000000000000e+00	-4.404551880062202157e-07
1.122429396701486667e+03	0.000000000000000000e+00	-3.697122743952231216e-07
1.125654768531089076e+03	0.000000000000000000e+00	-2.145012481871203206e-07
1.128880140360685118e+03	0.000000000000000000e+00	-1.806903806870895694e-08
1.132105512190287527e+03	0.000000000000000000e+00	1.523135273230542646e-07
1.135330884019889936e+03	0.000000000000000000e+00	2.321471520137357142e-07
1.138556255849492345e+03	0.000000000000000000e+00	1.905664952946260736e-07
1.141781627679094754e+03	0.000000000000000000e+00	4.828585707309564502e-08
1.145006999508697163e+03	0.000000000000000000e+00	-1.301266460157750067e-07
1.148232371338299572e+03	0.000000000000000000e+00	-2.681031541756988049e-07
1.151457743167901981e+03	0.000000000000000000e+00	-3.158206753957469138e-07
1.154683114997504617e+03	0.000000000000000000e+00	-2.730420911683388812e-07
1.157908486827107026e+03	0.000000000000000000e+00	-1.828957473089010648e-07
1.161133858656709435e+03	0.000000000000000000e+00	-1.020504185393915187e-07
1.164359230486311844e+03	0.000000000000000000e+00	-6.722707887965191021e-08
1.167584602315914253e+03	0.000000000000000000e+00	-7.846597482693835547e-08
1.170809974145516662e+03	0.000000000000000000e+00	-1.067740849975935705e-07
1.174035345975112705e+03	0.000000000000000000e+00	-1.177478624042613822e-07
1.177260717804715114e+03	0.000000000000000000e+00	-9.448483854177177240e-08
1.180486089634317523e+03	0.000000000000000000e+00	-4.649540833387912410e-08
1.183711461463919932e+03	0.000000000000000000e+00	-1.842346903227005067e-09
1.186936833293522341e+03	0.000000000000000000e+00	1.059258188724529849e-08
1.190162205123124750e+03	0.000000000000000000e+00	-2.190541979950642605e-08
1.193387576952727386e+03	0.000000000000000000e+00	-8.806622920577646313e-08
1.196612948782329795e+03	0.000000000000000000e+00	-1.572271328616918960e-07
1.199838320611932204e+03	0.000000000000000000e+00	-1.940525815561614223e-07
1.203063692441534613e+03	0.000000000000000000e+00	-1.765948812669234735e-07
1.206289064271137022e+03	0.000000000000000000e+00	-1.086756972511069001e-07
1.209514436100739431e+03	0.000000000000000000e+00	-1.930619882073657238e-08
1.212739807930341840e+03	0.000000000000000000e+00	5.182830023168032827e-08
1.215965179759937882e+03	0.000000000000000000e+00	7.549078952233861616e-08
1.219190551589540291e+03	0.000000000000000000e+00	4.831155904753176781e-08
1.222415923419142700e+03	0.000000000000000000e+00	-7.139480051968469265e-09
1.225641295248745109e+03	0.000000000000000000e+00	-5.771596833769282085e-08
1.228866667078347746e+03	0.000000000000000000e+00	-8.040515711695523697e-08
1.232092038907950155e+03	0.000000000000000000e+00	-7.486423239908772155e-08
1.235317410737552564e+03	0.000000000000000000e+00	-6.020662627580555874e-08
1.238542782567154973e+03	0.000000000000000000e+00	-5.940845917889741733e-08
1.241768154396757382e+03	0.000000000000000000e+00	-8.266803439281996032e-08
1.244993526226359791e+03	0.000000000000000000e+00	-1.206645081119443946e-07
1.248218898055962200e+03	0.000000000000000000e+00	-1.510351991795798351e-07
1.251444269885564609e+03	0.000000000000000000e+00	-1.526219682266925574e-07
1.254669641715167245e+03	0.000000000000000000e+00	-1.180868487711593044e-07
1.257895013544769654e+03	0.000000000000000000e+00	-5.795397875794193280e-08
1.261120385374365469e+03	0.000000000000000000e+00	4.958160643953234003e-09
1.264345757203967878e+03	0.000000000000000000e+00	4.668810793499915709e-08
1.267571129033570514e+03	0.000000000000000000e+00	5.299259714055225067e-08
1.270796500863172923e+03	0.000000000000000000e+00	2.512133359959593969e-08
1.274021872692775332e+03	0.000000000000000000e+00	-2.171997021479169239e-08
1.277247244522377741e+03	0.000000000000000000e+00	-6.641028328972231702e-08
1.280472616351980150e+03	0.000000000000000000e+00	-9.274348788956335011e-08
1.283697988181582559e+03	0.000000000000000000e+00	-9.754968335249602823e-08
1.286923360011184968e+03	0.000000000000000000e+00	-9.138022552518514736e-08
1.290148731840787377e+03	0.000000000000000000e+00	-9.087844914366874135e-08
1.293374103670390014e+03	0.000000000000000000e+00	-1.071513763625698509e-07
1.296599475499992423e+03	0.000000000000000000e+00	-1.375282094934802067e-07
1.299824847329594832e+03	0.000000000000000000e+00	-1.663822017836952927e-07
1.303050219159197241e+03	0.000000000000000000e+00	-1.748448168134061057e-07
1.306275590988793283e+03	0.000000000000000000e+00	-1.531910953014847138e-07
1.309500962818395692e+03	0.000000000000000000e+00	-1.077986803375796891e-07
1.312726334647998101e+03	0.000000000000000000e+00	-5.825625621298238922e-08
1.315951706477600510e+03	0.000000000000000000e+00	-2.670196739686973284e-08
1.319177078307202919e+03	0.000000000000000000e+00	-2.617818981065826736e-08
1.322402450136805328e+03	0.000000000000000000e+00	-5.472194715504081627e-08
1.325627821966407737e+03	0.000000000000000000e+00	-9.774120925234557276e-08
1.328853193796010373e+03	0.000000000000000000e+00	-1.362634709811867053e-07
1.332078565625612782e+03	0.000000000000000000e+00	-1.560293033796860269e-07
1.335303937455215191e+03	0.000000000000000000e+00	-1.530268476871515463e-07
1.338529309284817600e+03	0.000000000000000000e+00	-1.336289540718443587e-07
1.341754681114420009e+03	0.000000000000000000e+00	-1.101402036562317357e-07
1.344980052944022418e+03	0.000000000000000000e+00	-9.423961114085425417e-08
1.348205424773618461e+03	0.000000000000000000e+00	-9.138261080358266493e-08
1.351430796603220870e+03	0.000000000000000000e+00	-9.877275928153554679e-08
1.354656168432823279e+03	0.000000000000000000e+00	-1.079621404131351212e-07
1.357881540262425688e+03	0.000000000000000000e+00	-1.107501278787447688e-07
1.361106912092028097e+03	0.000000000000000000e+00	-1.049308749760365892e-07
1.364332283921630506e+03	0.000000000000000000e+00	-9.613964716204111115e-08
1.367557655751233142e+03	0.000000000000000000e+00	-9.426346965594151600e-08
1.370783027580835551e+03	0.000000000000000000e+00	-1.064747637377268852e-07
1.374008399410437960e+03	0.000000000000000000e+00	-1.314487885629320880e-07
1.377233771240040369e+03	0.000000000000000000e+00	-1.587761061325392215e-07
1.380459143069642778e+03	0.000000000000000000e+00	-1.741958623357524610e-07
1.383684514899245187e+03	0.000000000000000000e+00	-1.674245275755458216e-07
1.386909886728847596e+03	0.000000000000000000e+00	-1.377630991751716571e-07
1.390135258558450005e+03	0.000000000000000000e+00	-9.432352955074490214e-08
1.393360630388046047e+03	0.000000000000000000e+00	-5.122902085948901815e-08
1.396586002217648456e+03	0.000000000000000000e+00	-2.098033561810910884e-08
1.399811374047250865e+03	0.000000000000000000e+00	-9.644862308612535505e-09
1.403036745876853502e+03	0.000000000000000000e+00	-1.581353091027355298e-08
1.406262117706455911e+03	0.000000000000000000e+00	-3.293063838706152814e-08
1.409487489536058320e+03	0.000000000000000000e+00	-5.312647157100872922e-08
1.412712861365660729e+03	0.000000000000000000e+00	-7.054063854643292513e-08
1.415938233195263138e+03	0.000000000000000000e+00	-8.286257869194020551e-08
1.419163605024865547e+03	0.000000000000000000e+00	-9.079583750298638078e-08
1.422388976854467955e+03	0.000000000000000000e+00	-9.604204876960968507e-08
1.425614348684070364e+03	0.000000000000000000e+00	-9.906248633466095059e-08
1.428839720513673001e+03	0.000000000000000000e+00	-9.805675981982922861e-08
1.432065092343275410e+03	0.000000000000000000e+00	-8.999061937798508701e-08
1.435290464172877819e+03	0.000000000000000000e+00	-7.319400602245281394e-08
1.438515836002473861e+03	0.000000000000000000e+00	-4.978819595002313555e-08
1.441741207832076270e+03	0.000000000000000000e+00	-2.599722365192979958e-08
1.444966579661678679e+03	0.000000000000000000e+00	-9.651348986096870959e-09
1.448191951491281088e+03	0.000000000000000000e+00	-6.159152219747426334e-09
1.451417323320883497e+03	0.000000000000000000e+00	-1.546474441613930069e-08
1.454642695150485906e+03	0.000000000000000000e+00	-3.200310813295251498e-08
1.457868066980088315e+03	0.000000000000000000e+00	-4.771265591737547105e-08
1.461093438809690724e+03	0.000000000000000000e+00	-5.617869067267029204e-08
1.464318810639293133e+03	0.000000000000000000e+00	-5.539049768710762568e-08
1.467544182468895769e+03	0.000000000000000000e+00	-4.772253196164192070e-08
1.470769554298498178e+03	0.000000000000000000e+00	-3.764339623909573763e-08
1.473994926128100587e+03	0.000000000000000000e+00	-2.892729592922139086e-08
1.477220297957702996e+03	0.000000000000000000e+00	-2.305410616587646372e-08
1.480445669787299039e+03	0.000000000000000000e+00	-1.937756107250940070e-08
1.483671041616901448e+03	0.000000000000000000e+00	-1.646925076137232039e-08
1.486896413446503857e+03	0.000000000000000000e+00	-1.354793519609719227e-08
1.490121785276106266e+03	0.000000000000000000e+00	-1.115334627945141436e-08
1.493347157105708675e+03	0.000000000000000000e+00	-1.081543207419300217e-08
1.496572528935311084e+03	0.000000000000000000e+00	-1.399402717624504190e-08
1.499797900764913493e+03	0.000000000000000000e+00	-2.086899284765502403e-08
1.503023272594516129e+03	0.000000000000000000e+00	-2.965223203507204531e-08
1.506248644424118538e+03	0.000000000000000000e+00	-3.693403496880287621e-08
1.509474016253720947e+03	0.000000000000000000e+00	-3.910481502479761979e-08
1.512699388083323356e+03	0.000000000000000000e+00	-3.423256783663695835e-08
1.515924759912925765e+03	0.000000000000000000e+00	-2.332576078040908720e-08
1.519150131742528174e+03	0.000000000000000000e+00	-1.009739481912573707e-08
1.522375503572130583e+03	0.000000000000000000e+00	7.972100699650805519e-10
1.525600875401726626e+03	0.000000000000000000e+00	6.070370449945125393e-09
1.528826247231329035e+03	0.000000000000000000e+00	5.267957308016381895e-09
1.532051619060931444e+03	0.000000000000000000e+00	5.394884123848278960e-10
1.535276990890533853e+03	0.000000000000000000e+00	-5.006698385330429529e-09
1.538502362720136489e+03	0.000000000000000000e+00	-9.184035045797442861e-09
1.541727734549738898e+03	0.000000000000000000e+00	-1.164001817425288130e-08
1.544953106379341307e+03	0.000000000000000000e+00	-1.339731198959912791e-08
1.548178478208943716e+03	0.000000000000000000e+00	-1.559113253577353788e-08
1.551403850038546125e+03	0.000000000000000000e+00	-1.840266784763219243e-08
1.554629221868148534e+03	0.000000000000000000e+00	-2.086836111130837916e-08
1.557854593697750943e+03	0.000000000000000000e+00	-2.153781711401311815e-08
1.561079965527353352e+03	0.000000000000000000e+00	-1.942343010636662164e-08
1.564305337356955988e+03	0.000000000000000000e+00	-1.463485697761416239e-08
1.567530709186558397e+03	0.000000000000000000e+00	-8.408040675011060293e-09
1.570756081016154212e+03	0.000000000000000000e+00	-2.604565433214212871e-09
1.573981452845756621e+03	0.000000000000000000e+00	1.041828162883693045e-09
1.577206824675359258e+03	0.000000000000000000e+00	1.619908532268054286e-09
1.580432196504961667e+03	0.000000000000000000e+00	-5.929956258815954181e-10
1.583657568334564075e+03	0.000000000000000000e+00	-4.268990010075387589e-09
1.586882940164166484e+03	0.000000000000000000e+00	-7.658378143975665526e-09
1.590108311993768893e+03	0.000000000000000000e+00	-9.434582565998165934e-09
1.593333683823371302e+03	0.000000000000000000e+00	-9.303353690128865880e-09
1.596559055652973711e+03	0.000000000000000000e+00	-8.012853483456491946e-09
1.599784427482576120e+03	0.000000000000000000e+00	-6.763380239299563827e-09
1.603009799312178757e+03	0.000000000000000000e+00	-6.416486053998764396e-09
1.606235171141781166e+03	0.000000000000000000e+00	-7.032315570515266400e-09
1.609460542971383575e+03	0.000000000000000000e+00	-8.005344128613696144e-09
1.612685914800985984e+03	0.000000000000000000e+00	-8.620863157892937674e-09
1.615911286630582026e+03	0.000000000000000000e+00	-8.572583375937517432e-09
1.619136658460184435e+03	0.000000000000000000e+00	-8.075668526237979634e-09
1.622362030289786844e+03	0.000000000000000000e+00	-7.571383635606100596e-09
1.625587402119389253e+03	0.000000000000000000e+00	-7.331938965079330815e-09
1.628812773948991662e+03	0.000000000000000000e+00	-7.293563016630876822e-09
1.632038145778594071e+03	0.000000000000000000e+00	-7.200366582546774634e-09
1.635263517608196480e+03	0.000000000000000000e+00	-6.874968056332978407e-09
1.638488889437799116e+03	0.000000000000000000e+00	-6.367598060094857201e-09
1.641714261267401525e+03	0.000000000000000000e+00	-5.888415198856519108e-09
1.644939633097003934e+03	0.000000000000000000e+00	-5.625546408725189162e-09
1.648165004926606343e+03	0.000000000000000000e+00	-5.617452739552198826e-09
1.651390376756208752e+03	0.000000000000000000e+00	-5.758648469893654115e-09
1.654615748585811161e+03	0.000000000000000000e+00	-5.891386812493372503e-09
1.657841120415407204e+03	0.000000000000000000e+00	-5.894080386289363580e-09
1.661066492245009613e+03	0.000000000000000000e+00	-5.728098066565819464e-09
1.664291864074612022e+03	0.000000000000000000e+00	-5.460926548860651989e-09
1.667517235904214431e+03	0.000000000000000000e+00	-5.276082393401368685e-09
1.670742607733816840e+03	0.000000000000000000e+00	-5.434374400137040127e-09
1.673967979563419249e+03	0.000000000000000000e+00	-6.149097439684122021e-09
1.677193351393021885e+03	0.000000000000000000e+00	-7.412559487308979940e-09
1.680418723222624294e+03	0.000000000000000000e+00	-8.896574752963512976e-09
1.683644095052226703e+03	0.000000000000000000e+00	-1.004263125642914393e-08
1.686869466881829112e+03	0.000000000000000000e+00	-1.033258925699117788e-08
1.690094838711431521e+03	0.000000000000000000e+00	-9.581257575882213467e-09
1.693320210541033930e+03	0.000000000000000000e+00	-8.051682890762766305e-09
1.696545582370636339e+03	0.000000000000000000e+00	-6.310079871875884567e-09
1.699770954200238748e+03	0.000000000000000000e+00	-4.921209823939570330e-09
1.702996326029834790e+03	0.000000000000000000e+00	-4.188065260923270847e-09
1.706221697859437199e+03	0.000000000000000000e+00	-4.085125617243289775e-09
1.709447069689039608e+03	0.000000000000000000e+00	-4.380351598609720910e-09
1.712672441518642245e+03	0.000000000000000000e+00	-4.820137550622452903e-09
1.715897813348244654e+03	0.000000000000000000e+00	-5.249640929678815577e-09
1.719123185177847063e+03	0.000000000000000000e+00	-5.630767513244660887e-09
1.722348557007449472e+03	0.000000000000000000e+00	-6.003560971654519089e-09
1.725573928837051881e+03	0.000000000000000000e+00	-6.445808525324569998e-09
1.728799300666654290e+03	0.000000000000000000e+00	-7.039423009720037458e-09
1.732024672496256699e+03	0.000000000000000000e+00	-7.821232611768449835e-09
1.735250044325859108e+03	0.000000000000000000e+00	-8.720037440986979685e-09
1.738475416155461744e+03	0.000000000000000000e+00	-9.528924563148701318e-09
1.741700787985064153e+03	0.000000000000000000e+00	-9.966754721538572559e-09
1.744926159814666562e+03	0.000000000000000000e+00	-9.822008919008325658e-09
1.748151531644262377e+03	0.000000000000000000e+00	-9.094478588518953726e-09
1.751376903473865013e+03	0.000000000000000000e+00	-8.030950018405597323e-09
1.754602275303467422e+03	0.000000000000000000e+00	-7.017136963437150232e-09
1.757827647133069831e+03	0.000000000000000000e+00	-6.389274101953324013e-09
1.761053018962672240e+03	0.000000000000000000e+00	-6.282357659022205644e-09
1.764278390792274649e+03	0.000000000000000000e+00	-6.597838275205422762e-09
1.767503762621877058e+03	0.000000000000000000e+00	-7.086682898737542753e-09
1.770729134451479467e+03	0.000000000000000000e+00	-7.477253617707607070e-09
1.773954506281081876e+03	0.000000000000000000e+00	-7.575415074594690979e-09
1.777179878110684513e+03	0.000000000000000000e+00	-7.309062162437567358e-09
1.780405249940286922e+03	0.000000000000000000e+00	-6.729587149346335041e-09
1.783630621769889331e+03	0.000000000000000000e+00	-5.987876891300068402e-09
1.786855993599491740e+03	0.000000000000000000e+00	-5.286576792215014865e-09
1.790081365429087782e+03	0.000000000000000000e+00	-4.807891999032811879e-09
1.793306737258690191e+03	0.000000000000000000e+00	-4.638301318232556243e-09
1.796532109088292600e+03	0.000000000000000000e+00	-4.732769995776517106e-09
1.799757480917895009e+03	0.000000000000000000e+00	-4.948684197610435282e-09
1.802982852747497418e+03	0.000000000000000000e+00	-5.133321919850081045e-09
1.806208224577099827e+03	0.000000000000000000e+00	-5.206091400383997704e-09
1.809433596406702236e+03	0.000000000000000000e+00	-5.178907068658905549e-09
1.812658968236304872e+03	0.000000000000000000e+00	-5.107355964021767674e-09
1.815884340065907281e+03	0.000000000000000000e+00	-5.020369192618685089e-09
1.819109711895509690e+03	0.000000000000000000e+00	-4.889177443768927316e-09
1.822335083725112099e+03	0.000000000000000000e+00	-4.657422249370418489e-09
1.825560455554714508e+03	0.000000000000000000e+00	-4.299845322924750619e-09
1.828785827384316917e+03	0.000000000000000000e+00	-3.855265028935349123e-09
1.832011199213919326e+03	0.000000000000000000e+00	-3.406690561583735678e-09
1.835236571043515369e+03	0.000000000000000000e+00	-3.029178286858518694e-09
1.838461942873117778e+03	0.000000000000000000e+00	-2.750723606354724996e-09
1.841687314702720187e+03	0.000000000000000000e+00	-2.554457316816564745e-09
1.844912686532322596e+03	0.000000000000000000e+00	-2.411964048140059227e-09
1.848138058361925005e+03	0.000000000000000000e+00	-2.314026476120961080e-09
1.851363430191527641e+03	0.000000000000000000e+00	-2.274265083217897862e-09
1.854588802021130050e+03	0.000000000000000000e+00	-2.308949105552324643e-09
1.857814173850732459e+03	0.000000000000000000e+00	-2.414762509835415312e-09
1.861039545680334868e+03	0.000000000000000000e+00	-2.561710988610308760e-09
1.864264917509937277e+03	0.000000000000000000e+00	-2.701124699294761241e-09
1.867490289339539686e+03	0.000000000000000000e+00	-2.778631254740438433e-09
1.870715661169142095e+03	0.000000000000000000e+00	-2.746401369105405460e-09
1.873941032998744504e+03	0.000000000000000000e+00	-2.577335553982451901e-09
1.877166404828347140e+03	0.000000000000000000e+00	-2.282352633611550391e-09
1.880391776657942955e+03	0.000000000000000000e+00	-1.920777453918981640e-09
1.883617148487545364e+03	0.000000000000000000e+00	-1.587758106821175887e-09
1.886842520317148001e+03	0.000000000000000000e+00	-1.374119313674289374e-09
1.890067892146750410e+03	0.000000000000000000e+00	-1.317388232124037594e-09
1.893293263976352819e+03	0.000000000000000000e+00	-1.376930924364811942e-09
1.896518635805955228e+03	0.000000000000000000e+00	-1.454814379742132580e-09
1.899744007635557637e+03	0.000000000000000000e+00	-1.452690476441607085e-09
1.902969379465160046e+03	0.000000000000000000e+00	-1.328210342953839398e-09
1.906194751294762455e+03	0.000000000000000000e+00	-1.114464393870880608e-09
1.909420123124364864e+03	0.000000000000000000e+00	-8.928625798489839842e-10
1.912645494953967500e+03	0.000000000000000000e+00	-7.418556258113465264e-10
1.915870866783569909e+03	0.000000000000000000e+00	-6.964621516463788855e-10
1.919096238613172318e+03	0.000000000000000000e+00	-7.400390606723552638e-10
1.922321610442768133e+03	0.000000000000000000e+00	-8.246165133709643337e-10
1.925546982272370769e+03	0.000000000000000000e+00	-9.000993783432781593e-10
1.928772354101973178e+03	0.000000000000000000e+00	-9.346218150022209222e-10
1.931997725931575587e+03	0.000000000000000000e+00	-9.207726506419215542e-10
1.935223097761177996e+03	0.000000000000000000e+00	-8.718587577897337853e-10
1.938448469590780405e+03	0.000000000000000000e+00	-8.130430346039783816e-10
1.941673841420382814e+03	0.000000000000000000e+00	-7.690720734462356753e-10
1.944899213249985223e+03	0.000000000000000000e+00	-7.507611951299102135e-10
1.948124585079587632e+03	0.000000000000000000e+00	-7.467227485005657021e-10
1.951349956909190269e+03	0.000000000000000000e+00	-7.281241545369792055e-10
1.954575328738792678e+03	0.000000000000000000e+00	-6.672600382491227225e-10
1.957800700568395087e+03	0.000000000000000000e+00	-5.592443273710126797e-10
1.961026072397997496e+03	0.000000000000000000e+00	-4.307016562751389310e-10
1.964251444227599904e+03	0.000000000000000000e+00	-3.268433728783985897e-10
1.967476816057195947e+03	0.000000000000000000e+00	-2.842308674163173915e-10
1.970702187886798356e+03	0.000000000000000000e+00	-3.079931222975813468e-10
1.973927559716400765e+03	0.000000000000000000e+00	-3.694396940998792257e-10
1.977152931546003174e+03	0.000000000000000000e+00	-4.250219575879548694e-10
1.980378303375605583e+03	0.000000000000000000e+00	-4.426272452812062338e-10
1.983603675205207992e+03	0.000000000000000000e+00	-4.177124106181854495e-10
1.986829047034810628e+03	0.000000000000000000e+00	-3.710493940793735890e-10
1.990054418864413037e+03	0.000000000000000000e+00	-3.330262081612758380e-10
1.993279790694015446e+03	0.000000000000000000e+00	-3.262798532266389792e-10
1.996505162523617855e+03	0.000000000000000000e+00	-3.558413494447795188e-10
1.999730534353220264e+03	0.000000000000000000e+00	-4.088868524327724581e-10
